depth,dtb,radius,od,incl,hdng,x,y,dx,dy,dz,fx,fy,fz,friction,fn,fs
328.78,0.0,8.75,8.75,59.99999999999999,59.99999999999999,0.0,0.0,0.0,0.0,-0.0,-15147.46244,-0.00129,-68.43834,0.0,-29931.56166,0.0
327.34,1.4400000000000002,8.75,4.75,59.99999999999999,59.99999999999999,0.0,0.0,0.0167,0.0,-0.0004,-0.0,-0.0,-202.75271,0.0,-29728.80896,0.0
324.34,4.44,8.75,4.75,59.99999999999999,59.99999999999999,0.0,0.0,0.0215,0.0,-0.0011,-0.0,-0.0,-190.08253,0.0,-29538.72643,0.0
323.09999999999997,5.68,8.75,8.75,59.99999999999999,59.99999999999999,0.0,0.0,0.0,0.0,-0.0014,22574.12083,0.00102,-237.46442,0.0,-29301.262,0.0
319.06,9.72,8.75,4.75,59.99999999999999,59.99999999999999,0.0,0.0,-0.1979,-0.0,-0.0024,-0.0,-0.0,-1157.8358,0.0,-28143.4262,0.0
300.335,28.445000000000004,8.75,4.75,59.99999999999999,59.99999999999999,0.0,0.0,-2.3898,-0.0,-0.0069,-0.0,-0.0,-1952.27908,0.0,-26191.14712,0.0
281.60999999999996,47.17000000000001,8.75,4.8125,59.99999999999999,59.99999999999999,0.0,0.0,-3.9375,-0.0,-0.0111,1743.46993,0.00054,-1696.50895,0.0,-24494.63817,0.0
268.065,60.715,8.75,4.8125,59.99999999999999,60.00000000000001,0.0,3.1255835504478445e-14,-3.9375,-0.0,-0.0139,3774.65799,0.00205,-1440.73883,0.0,-23053.89934,0.0
254.51999999999998,74.26,8.75,4.8125,59.99999999999999,59.99999999999999,0.0,6.251167100895689e-14,-3.1062,-0.0,-0.0167,-0.0,-0.0,-1502.5843,0.0,-21551.31503,0.0
239.51499999999996,89.265,8.75,4.75,59.99999999999999,59.99999999999999,0.0,6.251167100895689e-14,-1.3673,-0.0,-0.0195,-0.0,-0.0,-1564.42978,0.0,-19986.88526,0.0
224.51,104.27,8.75,4.75,59.99999999999999,59.99999999999999,0.0,6.251167100895689e-14,-0.0214,-0.0,-0.0222,-0.0,-0.0,-865.93751,0.0,-19120.94774,0.0
222.63999999999996,106.14,8.75,8.75,59.99999999999999,59.99999999999999,0.0,6.251167100895689e-14,0.0,0.0,-0.0225,13318.71274,-0.0057,-250.72016,0.0,-18870.22759,0.0
218.90999999999997,109.87,8.75,4.75,59.99999999999999,59.99999999999999,0.0,6.251167100895689e-14,-0.1013,0.0,-0.0232,-0.0,-0.0,-815.95252,0.0,-18054.27507,0.0
204.54499999999996,124.23500000000001,8.75,4.75,59.99999999999999,59.99999999999999,0.0,6.251167100895689e-14,-1.6407,0.0,-0.0256,-0.0,-0.0,-1297.90997,0.0,-16756.36509,0.0
190.17999999999995,138.60000000000002,8.75,4.75,59.99999999999999,59.99999999999999,0.0,6.251167100895689e-14,-3.5474,0.0,-0.0279,-0.0,-0.0,-821.64934,0.0,-15934.71575,0.0
185.95999999999995,142.82000000000002,8.75,4.5625,59.99999999999999,59.99999999999999,0.0,6.251167100895689e-14,-3.9806,0.0,-0.0285,-0.0,-0.0,-592.4711,0.0,-15342.24465,0.0
171.96999999999994,156.81000000000003,8.75,3.9375,59.99999999999999,59.99999999999999,0.0,6.251167100895689e-14,-4.76,0.0,-0.0306,-0.0,-0.0,-839.55349,0.0,-14502.69115,0.0
157.97999999999993,170.80000000000004,8.75,3.9375,59.99999999999999,59.99999999999999,0.0,6.251167100895689e-14,-4.8125,0.0,-0.0326,4010.63672,-0.00385,-816.82021,0.0,-13685.87094,0.0
143.25499999999997,185.525,8.75,3.7815,59.99999999999999,59.99999999999999,0.0,6.251167100895689e-14,-4.9665,0.0,-0.0345,-0.0,-0.0,-794.08693,0.0,-12891.78401,0.0
128.52999999999997,200.25,8.75,3.8125,59.99999999999999,59.99999999999999,0.0,6.251167100895689e-14,-4.9375,0.0,-0.0364,2197.27799,-3.0e-5,-679.84134,0.0,-12211.94267,0.0
118.23999999999997,210.54,8.75,3.8125,59.99999999999999,59.99999999999999,0.0,6.251167100895689e-14,-4.9375,-0.0,-0.0376,658.20923,6.0e-5,-565.59574,0.0,-11646.34693,0.0
107.94999999999997,220.83,8.75,3.8125,59.99999999999999,59.99999999999999,0.0,6.251167100895689e-14,-4.8795,-0.0,-0.0387,-0.0,-0.0,-565.59574,0.0,-11080.75119,0.0
97.65999999999997,231.12,8.75,4.0,59.99999999999999,59.99999999999999,0.0,6.251167100895689e-14,-4.75,-0.0,-0.0398,2577.93011,0.00031,-766.38643,0.0,-10314.36476,0.0
82.10999999999997,246.67,8.75,4.0,59.99999999999999,59.99999999999999,0.0,6.251167100895689e-14,-4.75,-0.0,-0.0413,1022.61955,8.0e-5,-967.17711,0.0,-9347.18764,0.0
66.55999999999999,262.21999999999997,8.75,4.0,59.99999999999999,59.99999999999999,0.0,6.251167100895689e-14,-4.75,-0.0,-0.0427,1592.66029,6.0e-5,-808.67984,0.0,-8538.5078,0.0
55.833333333333336,272.94666666666666,8.75,4.0,59.99999999999999,59.99999999999999,0.0,6.251167100895689e-14,-4.75,-0.0,-0.0435,1105.81115,2.0e-5,-650.18257,0.0,-7888.32523,0.0
45.10666666666668,283.6733333333333,8.75,4.0,59.99999999999999,59.99999999999999,0.0,6.251167100895689e-14,-4.75,-0.0,-0.0443,925.98489,0.0,-650.18257,0.0,-7238.14266,0.0
34.38000000000003,294.3999999999999,8.75,4.0,59.99999999999999,59.99999999999999,0.0,6.251167100895689e-14,-4.75,0.0,-0.0451,1783.38202,-1.0e-5,-796.85177,0.0,-6441.29089,0.0
18.940000000000015,309.84,8.75,3.969,59.99999999999999,59.99999999999999,0.0,6.251167100895689e-14,-4.781,0.0,-0.046,1150.99995,-0.0,-943.52097,0.0,-5497.76991,0.0
3.5,325.28,8.75,4.0,59.99999999999999,59.99999999999999,0.0,6.251167100895689e-14,-4.75,0.0,-0.0468,1797.37499,-0.0,-580.60679,0.0,-4917.16313,0.0
0.0,328.78,8.75,4.0,59.99999999999999,59.99999999999999,0.0,6.251167100895689e-14,-4.75,0.0,-0.0469,-364.25319,-2.0e-5,-4917.16313,0.0,-4808.31683,0.0
