depth,dtb,radius,od,incl,hdng,x,y,dx,dy,dz,fx,fy,fz,friction,fn,fs
328.78,0.0,8.75,8.75,40.0,59.99999999999999,0.0,0.0,0.0,0.0,-0.0,-14131.84449,-0.00362,-104.85362,0.0,-39895.14638,0.0
327.34,1.4400000000000002,8.75,4.75,40.0,59.99999999999999,0.0,0.0,0.0155,0.0,-0.0005,-0.0,-0.0,-310.63517,0.0,-39584.51122,0.0
324.34,4.44,8.75,4.75,40.0,59.99999999999999,0.0,0.0,0.02,0.0,-0.0014,-0.0,-0.0,-291.22333,0.0,-39293.28788,0.0
323.09999999999997,5.68,8.75,8.75,40.0,59.99999999999999,0.0,0.0,0.0,0.0,-0.0018,20220.08835,0.00353,-363.81661,0.0,-38929.47128,0.0
319.06,9.72,8.75,4.75,40.0,59.99999999999999,0.0,0.0,-0.1846,-0.0,-0.0031,-0.0,-0.0,-1773.90736,0.0,-37155.56391,0.0
300.335,28.445000000000004,8.75,4.75,40.0,59.99999999999999,0.0,0.0,-2.3048,-0.0,-0.0089,-0.0,-0.0,-2991.06508,0.0,-34164.49884,0.0
281.60999999999996,47.17000000000001,8.75,4.8125,40.0,59.99999999999999,0.0,0.0,-3.9375,-0.0,-0.0143,587.90717,0.00034,-2599.20251,0.0,-31565.29632,0.0
268.065,60.715,8.75,4.8125,40.0,60.00000000000001,0.0,2.3198931237911076e-14,-3.9375,-0.0,-0.0179,2603.35243,0.00233,-2207.33995,0.0,-29357.95637,0.0
254.51999999999998,74.26,8.75,4.8125,40.0,59.99999999999999,0.0,4.639786247582215e-14,-3.0398,-0.0,-0.0214,-0.0,-0.0,-2302.09271,0.0,-27055.86366,0.0
239.51499999999996,89.265,8.75,4.75,40.0,59.99999999999999,0.0,4.639786247582215e-14,-1.321,-0.0,-0.0249,-0.0,-0.0,-2396.84547,0.0,-24659.01818,0.0
224.51,104.27,8.75,4.75,40.0,59.99999999999999,0.0,4.639786247582215e-14,-0.0301,-0.0,-0.0282,-0.0,-0.0,-1326.69324,0.0,-23332.32495,0.0
222.63999999999996,106.14,8.75,8.75,40.0,59.99999999999999,0.0,4.639786247582215e-14,0.0,0.0,-0.0286,10573.4094,-0.00658,-384.12557,0.0,-22948.19938,0.0
218.90999999999997,109.87,8.75,4.75,40.0,59.99999999999999,0.0,4.639786247582215e-14,-0.0657,0.0,-0.0294,-0.0,-0.0,-1250.11179,0.0,-21698.08759,0.0
204.54499999999996,124.23500000000001,8.75,4.75,40.0,59.99999999999999,0.0,4.639786247582215e-14,-1.369,0.0,-0.0323,-0.0,-0.0,-1988.51345,0.0,-19709.57415,0.0
190.17999999999995,138.60000000000002,8.75,4.75,40.0,59.99999999999999,0.0,4.639786247582215e-14,-3.1441,0.0,-0.035,-0.0,-0.0,-1258.83983,0.0,-18450.73432,0.0
185.95999999999995,142.82000000000002,8.75,4.5625,40.0,59.99999999999999,0.0,4.639786247582215e-14,-3.5857,0.0,-0.0357,-0.0,-0.0,-907.71839,0.0,-17543.01593,0.0
171.96999999999994,156.81000000000003,8.75,3.9375,40.0,59.99999999999999,0.0,4.639786247582215e-14,-4.537,0.0,-0.0381,-0.0,-0.0,-1286.27057,0.0,-16256.74535,0.0
157.97999999999993,170.80000000000004,8.75,3.9375,40.0,59.99999999999999,0.0,4.639786247582215e-14,-4.8125,0.0,-0.0404,2616.16133,-0.00386,-1251.44117,0.0,-15005.30418,0.0
143.25499999999997,185.525,8.75,3.7815,40.0,59.99999999999999,0.0,4.639786247582215e-14,-4.9685,0.0,-0.0426,174.40595,-0.00011,-1216.61176,0.0,-13788.69242,0.0
128.52999999999997,200.25,8.75,3.8125,40.0,59.99999999999999,0.0,4.639786247582215e-14,-4.9375,0.0,-0.0446,1814.94735,-0.00026,-1041.57736,0.0,-12747.11506,0.0
118.23999999999997,210.54,8.75,3.8125,40.0,59.99999999999999,0.0,4.639786247582215e-14,-4.9375,-0.0,-0.0458,256.93241,1.0e-5,-866.54295,0.0,-11880.57211,0.0
107.94999999999997,220.83,8.75,3.8125,40.0,59.99999999999999,0.0,4.639786247582215e-14,-4.8715,-0.0,-0.047,-0.0,-0.0,-866.54295,0.0,-11014.02915,0.0
97.65999999999997,231.12,8.75,4.0,40.0,59.99999999999999,0.0,4.639786247582215e-14,-4.75,-0.0,-0.0481,2072.62719,0.00034,-1174.17213,0.0,-9839.85703,0.0
82.10999999999997,246.67,8.75,4.0,40.0,59.99999999999999,0.0,4.639786247582215e-14,-4.75,-0.0,-0.0495,648.88913,9.0e-5,-1481.8013,0.0,-8358.05572,0.0
66.55999999999999,262.21999999999997,8.75,4.0,40.0,59.99999999999999,0.0,4.639786247582215e-14,-4.75,-0.0,-0.0508,1213.32079,0.0001,-1238.9694,0.0,-7119.08632,0.0
55.833333333333336,272.94666666666666,8.75,4.0,40.0,59.99999999999999,0.0,4.639786247582215e-14,-4.75,-0.0,-0.0515,822.49569,4.0e-5,-996.13749,0.0,-6122.94883,0.0
45.10666666666668,283.6733333333333,8.75,4.0,40.0,59.99999999999999,0.0,4.639786247582215e-14,-4.75,-0.0,-0.0521,633.94448,2.0e-5,-996.13749,0.0,-5126.81134,0.0
34.38000000000003,294.3999999999999,8.75,4.0,40.0,59.99999999999999,0.0,4.639786247582215e-14,-4.75,-0.0,-0.0526,1428.08608,2.0e-5,-1220.84774,0.0,-3905.96359,0.0
18.940000000000015,309.84,8.75,3.969,40.0,59.99999999999999,0.0,4.639786247582215e-14,-4.781,-0.0,-0.0532,729.43172,0.0,-1445.558,0.0,-2460.4056,0.0
3.5,325.28,8.75,4.0,40.0,59.99999999999999,0.0,4.639786247582215e-14,-4.75,0.0,-0.0536,1538.24871,-0.0,-889.5412,0.0,-1570.86439,0.0
0.0,328.78,8.75,4.0,40.0,59.99999999999999,0.0,4.639786247582215e-14,-4.75,-0.0,-0.0536,-412.82711,-3.0e-5,-1570.86439,0.0,-1404.10219,0.0
