depth,dtb,radius,od,incl,hdng,x,y,dx,dy,dz,fx,fy,fz,friction,fn,fs
328.7799999999999,0.0,8.75,8.75,59.99999999999999,59.99999999999999,0.0,0.0,0.0,0.0,-0.0,-2.0e-5,-0.01463,-68.43834,0.0,-29931.56166,0.0
327.3399999999999,1.4400000000000002,8.75,4.75,59.90820070338932,59.99999999999999,0.013843006319515433,0.0,0.0412,0.0,-0.0004,-0.0,-0.0,-203.3151,0.0,-29728.24656,0.0
324.3399999999999,4.44,8.75,4.75,59.71695216878375,59.99999999999999,0.13160449460193482,0.0,0.0374,0.0,-0.0011,-0.0,-0.0,-191.70665,0.0,-29536.53991,0.0
323.09999999999997,5.68,8.75,8.75,59.63790277448012,59.99999999999999,0.2153777481729928,0.0,0.0,0.0,-0.0014,8493.04579,0.01251,-240.059,0.0,-29296.48091,0.0
319.05999999999995,9.72,8.75,4.75,59.380354747877966,59.99999999999999,0.6307163078972762,0.0,-0.2574,-0.0,-0.0024,-0.0,-0.0,-383.96249,0.0,-28912.51842,0.0
315.31499999999994,13.465000000000002,8.75,4.75,59.14161282717868,59.99999999999998,1.2103483158410078,-8.57672339525195e-15,-0.6368,-0.0,-0.0033,-0.0,-0.0,-400.54357,0.0,-28511.97486,0.0
311.56999999999994,17.21,8.75,4.75,58.90287090647941,59.99999999999999,1.9772166297688074,-1.713211993122469e-14,-1.099,-0.0,-0.0042,-0.0,-0.0,-403.33338,0.0,-28108.64148,0.0
307.82499999999993,20.955000000000002,8.75,4.75,58.664128985780124,59.99999999999999,2.9313079349536437,-1.713211993122469e-14,-1.5995,-0.0,-0.0051,-0.0,-0.0,-406.11618,0.0,-27702.52529,0.0
304.0799999999999,24.700000000000003,8.75,4.75,58.42538706508085,59.99999999999999,4.072605666015171,-1.713211993122469e-14,-2.1004,-0.0,-0.0059,-0.0,-0.0,-408.89194,0.0,-27293.63335,0.0
300.3349999999999,28.445000000000004,8.75,4.75,58.18664514438157,59.99999999999999,5.401090007207352,-1.713211993122469e-14,-2.5708,-0.0,-0.0068,-0.0,-0.0,-411.6606,0.0,-26881.97276,0.0
296.5899999999999,32.190000000000005,8.75,4.75,57.94790322368229,59.99999999999999,6.916737892762498,-1.713211993122469e-14,-2.987,-0.0,-0.0077,-0.0,-0.0,-414.4221,0.0,-26467.55065,0.0
292.84499999999997,35.935,8.75,4.75,57.70916130298301,59.99999999999999,8.619523007291765,-1.713211993122469e-14,-3.3327,-0.0,-0.0085,-0.0,-0.0,-417.17642,0.0,-26050.37424,0.0
289.09999999999997,39.68,8.75,4.75,57.47041938228373,59.99999999999999,10.509415786242036,-1.713211993122469e-14,-3.5988,-0.0,-0.0093,-0.0,-0.0,-419.92349,0.0,-25630.45075,0.0
285.35499999999996,43.425000000000004,8.75,4.75,57.231677461584454,59.99999999999999,12.586383416409248,-1.713211993122469e-14,-3.7833,-0.0,-0.0101,-0.0,-0.0,-422.66326,0.0,-25207.78748,0.0
281.60999999999996,47.17000000000001,8.75,4.8125,56.99293554088517,59.99999999999999,14.850389836508096,-1.713211993122469e-14,-3.8918,-0.0,-0.0109,-0.0,-0.0,-436.93545,0.0,-24770.85204,0.0
277.73999999999995,51.04,8.75,4.8125,56.746224931244,59.99999999999999,17.386429635095396,-1.713211993122469e-14,-3.9375,-0.0,-0.0118,81.85859,0.00036,-451.44385,0.0,-24319.40819,0.0
273.86999999999995,54.910000000000004,8.75,4.8125,56.499514321602824,59.99999999999999,20.12211349355937,-1.713211993122469e-14,-3.9375,-0.0,-0.0126,6817.74012,0.03623,-454.40413,0.0,-23865.00406,0.0
269.99999999999994,58.78000000000001,8.75,4.8125,56.252803711961654,59.99999999999999,23.05739068998698,-1.713211993122469e-14,-3.9104,-0.0,-0.0134,-0.0,-0.0,-457.35599,0.0,-23407.64806,0.0
266.12999999999994,62.65000000000001,8.75,4.8125,56.00609310232048,59.99999999999999,26.192206801834413,-1.713211993122469e-14,-3.8402,-0.0,-0.0142,-0.0,-0.0,-460.29937,0.0,-22947.34869,0.0
262.25999999999993,66.52000000000002,8.75,4.8125,55.7593824926793,59.99999999999999,29.526503706936087,-1.713211993122469e-14,-3.7078,-0.0,-0.0149,-0.0,-0.0,-463.23422,0.0,-22484.11447,0.0
258.38999999999993,70.39000000000003,8.75,4.8125,55.51267188303813,59.99999999999999,33.06021958458231,-1.713211993122469e-14,-3.5016,-0.0,-0.0157,-0.0,-0.0,-466.16048,0.0,-22017.95399,0.0
254.5199999999999,74.26000000000003,8.75,4.8125,55.265961273396954,59.99999999999999,36.793288916665475,-1.713211993122469e-14,-3.2176,-0.0,-0.0164,-0.0,-0.0,-457.37949,0.0,-21560.5745,0.0
250.76874999999993,78.01125000000003,8.75,4.75,55.026820918250586,59.99999999999999,40.60201603396166,-1.713211993122469e-14,-2.8708,-0.0,-0.0171,-0.0,-0.0,-448.36003,0.0,-21112.21446,0.0
247.01749999999993,81.76250000000003,8.75,4.75,54.78768056310421,59.99999999999999,44.59791871125952,-1.713211993122469e-14,-2.4631,-0.0,-0.0178,-0.0,-0.0,-451.03136,0.0,-20661.1831,0.0
243.2662499999999,85.51375000000003,8.75,4.75,54.548540207957835,59.99999999999999,48.7809273380601,-1.713211993122469e-14,-2.0099,-0.0,-0.0185,-0.0,-0.0,-453.69483,0.0,-20207.48826,0.0
239.51499999999987,89.26500000000004,8.75,4.75,54.30939985281147,59.99999999999999,53.15096904439107,-1.713211993122469e-14,-1.5334,-0.0,-0.0192,-0.0,-0.0,-456.3504,0.0,-19751.13786,0.0
235.76374999999987,93.01625000000006,8.75,4.75,54.07025949766509,59.99999999999999,57.70796770207609,-1.713211993122469e-14,-1.0619,-0.0,-0.0199,-0.0,-0.0,-458.99802,0.0,-19292.13984,0.0
232.0124999999999,96.76750000000006,8.75,4.75,53.83111914251872,59.99999999999999,62.45184392606106,-1.713211993122469e-14,-0.6298,-0.0,-0.0205,-0.0,-0.0,-461.63764,0.0,-18830.50219,0.0
228.26124999999988,100.51875000000007,8.75,4.75,53.59197878737235,59.99999999999999,67.382515075797,-1.713211993122469e-14,-0.2774,-0.0,-0.0212,-0.0,-0.0,-464.26923,0.0,-18366.23297,0.0
224.50999999999985,104.27000000000008,8.75,4.75,53.35283843222598,59.99999999999999,72.49989525667974,-1.713211993122469e-14,-0.0505,-0.0,-0.0218,-0.0,-0.0,-333.392,0.0,-18032.84097,0.0
222.63999999999987,106.14000000000009,8.75,8.75,53.233626845655174,59.99999999999999,75.12061892778034,-1.713211993122469e-14,0.0,-0.0,-0.0221,13245.82245,-0.08459,-300.13888,0.0,-17732.70209,0.0
218.90999999999985,109.87000000000008,8.75,4.75,52.995841167628924,59.99999999999999,80.48651667773777,-1.713211993122469e-14,-0.0413,0.0,-0.0227,-0.0,-0.0,-424.21603,0.0,-17308.48607,0.0
214.80571428571412,113.97428571428578,8.75,4.75,52.73419495814236,59.99999999999999,86.60390472091049,-1.713211993122469e-14,-0.2687,0.0,-0.0233,-0.0,-0.0,-449.0869,0.0,-16859.39917,0.0
210.70142857142844,118.0785714285715,8.75,4.75,52.4725487486558,59.99999999999999,92.94439753195071,-1.713211993122469e-14,-0.6355,0.0,-0.024,-0.0,-0.0,-451.77759,0.0,-16407.62158,0.0
206.59714285714276,122.1828571428572,8.75,4.75,52.21090253916923,59.99999999999999,99.50786288819845,-1.713211993122469e-14,-1.0948,0.0001,-0.0246,-0.0,-0.0,-454.45887,0.0,-15953.16271,0.0
202.49285714285702,126.28714285714291,8.75,4.75,51.94925632968267,59.99999999999999,106.2941639171938,-1.713211993122469e-14,-1.6059,0.0001,-0.0252,-0.0,-0.0,-457.13067,0.0,-15496.03205,0.0
198.38857142857128,130.39142857142863,8.75,4.75,51.687610120196105,59.99999999999999,113.30315909953121,-1.713211993122469e-14,-2.1342,0.0001,-0.0258,-0.0,-0.0,-459.79293,0.0,-15036.23912,0.0
194.2842857142856,134.49571428571434,8.75,4.75,51.42596391070954,59.99999999999999,120.53470227181074,-1.713211993122469e-14,-2.6517,0.0001,-0.0264,-0.0,-0.0,-462.44561,0.0,-14573.79351,0.0
190.17999999999992,138.60000000000005,8.75,4.75,51.16431770122298,59.99999999999999,127.98864262968601,-1.713211993122469e-14,-3.1372,0.0001,-0.027,-0.0,-0.0,-340.83906,0.0,-14232.95445,0.0
188.0699999999999,140.71000000000004,8.75,4.5625,51.02980623188373,59.99999999999998,131.90719234111648,-2.1507353699315055e-14,-3.3689,0.0001,-0.0273,-0.0,-0.0,-217.2205,0.0,-14015.73396,0.0
185.9599999999999,142.82000000000002,8.75,4.5625,50.895294762544495,59.99999999999999,135.8844579814782,-2.587428641472853e-14,-3.5863,0.0001,-0.0276,-0.0,-0.0,-226.60062,0.0,-13789.13334,0.0
182.851111111111,145.9288888888889,8.75,3.9375,50.69710461446065,59.99999999999999,141.85153478751536,-2.587428641472853e-14,-3.8768,0.0001,-0.028,-0.0,-0.0,-236.35109,0.0,-13552.78225,0.0
179.74222222222215,149.0377777777778,8.75,3.9375,50.49891446637681,59.99999999999999,147.94596064856796,-2.587428641472853e-14,-4.1269,0.0001,-0.0285,-0.0,-0.0,-237.34843,0.0,-13315.43382,0.0
176.63333333333324,152.14666666666668,8.75,3.9375,50.30072431829297,59.99999999999999,154.16766264386953,-2.587428641472853e-14,-4.3327,0.0001,-0.0289,-0.0,-0.0,-238.34293,0.0,-13077.09089,0.0
173.52444444444436,155.25555555555556,8.75,3.9375,50.10253417020913,59.99999999999998,160.51656632977466,-3.2238701268255714e-14,-4.4938,0.0001,-0.0293,-0.0,-0.0,-239.33457,0.0,-12837.75632,0.0
170.41555555555547,158.36444444444444,8.75,3.9375,49.904344022125294,59.99999999999998,166.9925957406496,-3.858473696971321e-14,-4.6125,0.0001,-0.0297,-0.0,-0.0,-240.32336,0.0,-12597.43296,0.0
167.3066666666666,161.47333333333333,8.75,3.9375,49.706153874041455,59.99999999999998,173.59567338978124,-4.4912317587783164e-14,-4.6941,0.0001,-0.03,-0.0,-0.0,-241.30926,0.0,-12356.1237,0.0
164.1977777777777,164.5822222222222,8.75,3.9375,49.507963725957616,59.99999999999999,180.32572027030432,-5.1221367411965715e-14,-4.7468,0.0001,-0.0304,-0.0,-0.0,-242.29228,0.0,-12113.83141,0.0
161.08888888888882,167.6911111111111,8.75,3.9375,49.30977357787378,59.99999999999999,187.18265585614665,-5.1221367411965715e-14,-4.7816,0.0001,-0.0308,-0.0,-0.0,-243.2724,0.0,-11870.55901,0.0
157.97999999999993,170.79999999999998,8.75,3.9375,49.11158342978994,59.99999999999999,194.16639810299273,-5.1221367411965715e-14,-4.8125,0.0001,-0.0312,2820.14691,-0.05154,-237.63587,0.0,-11632.92314,0.0
154.7077777777777,174.07222222222222,8.75,3.7815,48.90298086148868,59.99999999999999,201.65393226206302,-5.1221367411965715e-14,-4.8531,0.0001,-0.0316,-0.0,-0.0,-231.99198,0.0,-11400.93116,0.0
151.43555555555545,177.34444444444446,8.75,3.7815,48.69437829318743,59.99999999999999,209.2817554791035,-5.1221367411965715e-14,-4.8958,0.0001,-0.0319,-0.0,-0.0,-232.95877,0.0,-11167.97239,0.0
148.1633333333332,180.6166666666667,8.75,3.7815,48.48577572488617,59.99999999999999,217.0497666440987,-5.1221367411965715e-14,-4.9321,0.0001,-0.0323,-0.0,-0.0,-233.92247,0.0,-10934.04992,0.0
144.89111111111097,183.88888888888894,8.75,3.7815,48.277173156584915,59.99999999999999,224.95786278878268,-5.1221367411965715e-14,-4.9569,0.0001,-0.0326,-0.0,-0.0,-234.88307,0.0,-10699.16686,0.0
141.61888888888873,187.16111111111118,8.75,3.7815,48.068570588283656,59.99999999999999,233.00593908800403,-5.1221367411965715e-14,-4.9685,0.0001,-0.033,97.78571,-0.00104,-235.84055,0.0,-10463.3263,0.0
138.3466666666665,190.43333333333342,8.75,3.7815,47.859968019982404,59.99999999999999,241.19388886111528,-5.1221367411965715e-14,-4.9685,0.0,-0.0333,276.1893,-0.00262,-236.79491,0.0,-10226.53139,0.0
135.07444444444425,193.70555555555566,8.75,3.7815,47.651365451681144,59.99999999999999,249.52160357338713,-5.1221367411965715e-14,-4.9602,0.0,-0.0337,-0.0,-0.0,-237.74613,0.0,-9988.78526,0.0
131.802222222222,196.9777777777779,8.75,3.7815,47.44276288337989,59.99999999999999,257.9889728374469,-5.1221367411965715e-14,-4.9477,0.0,-0.034,-0.0,-0.0,-238.6942,0.0,-9750.09106,0.0
128.52999999999977,200.25000000000014,8.75,3.8125,47.23416031507863,59.99999999999999,266.59588441474205,-5.1221367411965715e-14,-4.9375,0.0,-0.0343,1656.58372,-0.01154,-235.03204,0.0,-9515.05902,0.0
125.4429999999998,203.33700000000013,8.75,3.8125,47.037365572969506,59.99999999999999,274.84342151300524,-5.1221367411965715e-14,-4.9358,0.0,-0.0346,-0.0,-0.0,-231.27931,0.0,-9283.77971,0.0
122.35599999999981,206.42400000000012,8.75,3.8125,46.840570830860386,59.99999999999999,283.214951775772,-5.1221367411965715e-14,-4.9375,0.0,-0.0348,205.36415,-0.00126,-232.13093,0.0,-9051.64878,0.0
119.26899999999982,209.5110000000001,8.75,3.8125,46.64377608875126,59.99999999999999,291.7103764418917,-5.1221367411965715e-14,-4.9375,0.0,-0.0351,91.71943,-0.00055,-232.97981,0.0,-8818.66897,0.0
116.18199999999983,212.5980000000001,8.75,3.8125,46.44698134664213,59.99999999999999,300.3295952885985,-5.1221367411965715e-14,-4.9313,0.0,-0.0354,-0.0,-0.0,-233.82594,0.0,-8584.84303,0.0
113.09499999999984,215.6850000000001,8.75,3.8125,46.25018660453301,59.99999999999999,309.07250663269417,-5.1221367411965715e-14,-4.9159,0.0,-0.0356,-0.0,-0.0,-234.66931,0.0,-8350.17373,0.0
110.00799999999985,218.77200000000008,8.75,3.8125,46.05339186242389,59.99999999999999,317.9390073317473,-5.1221367411965715e-14,-4.8903,0.0,-0.0359,-0.0,-0.0,-235.50991,0.0,-8114.66382,0.0
106.92099999999986,221.85900000000007,8.75,3.8125,45.85659712031476,59.99999999999999,326.9289927853104,-5.1221367411965715e-14,-4.856,0.0,-0.0361,-0.0,-0.0,-236.34773,0.0,-7878.31609,0.0
103.83399999999988,224.94600000000005,8.75,3.8125,45.65980237820564,59.99999999999999,336.0423569361537,-5.1221367411965715e-14,-4.8168,0.0,-0.0364,-0.0,-0.0,-237.18277,0.0,-7641.13332,0.0
100.74699999999989,228.03300000000004,8.75,3.8125,45.46300763609651,59.99999999999999,345.27899227151636,-5.1221367411965715e-14,-4.7787,0.0,-0.0366,-0.0,-0.0,-238.015,0.0,-7403.11832,0.0
97.6599999999999,231.12000000000003,8.75,4.0,45.26621289398739,59.99999999999999,354.63878982437495,-5.1221367411965715e-14,-4.75,0.0,-0.0368,2172.94961,-0.01974,-270.69167,0.0,-7132.42665,0.0
94.20444444444433,234.5755555555556,8.75,4.0,45.045922915238016,59.99999999999999,365.26201092337084,-5.1221367411965715e-14,-4.7371,0.0,-0.037,-0.0,-0.0,-303.71072,0.0,-6828.71593,0.0
90.74888888888877,238.03111111111116,8.75,4.0,44.825632936488645,59.99999999999999,376.0392629268769,-5.1221367411965715e-14,-4.7375,0.0001,-0.0373,-0.0,-0.0,-304.87805,0.0,-6523.83787,0.0
87.29333333333322,241.4866666666667,8.75,4.0,44.60534295773927,59.99999999999999,386.9703865217081,-5.1221367411965715e-14,-4.7429,0.0001,-0.0375,-0.0,-0.0,-306.04087,0.0,-6217.797,0.0
83.83777777777766,244.94222222222228,8.75,4.0,44.3850529789899,59.99999999999999,398.05522012009465,-5.1221367411965715e-14,-4.7478,0.0001,-0.0377,-0.0,-0.0,-307.19917,0.0,-5910.59783,0.0
80.3822222222221,248.39777777777783,8.75,4.0,44.16476300024053,59.99999999999999,409.29359986207055,-5.1221367411965715e-14,-4.75,0.0001,-0.0379,23.19602,-0.00038,-308.35293,0.0,-5602.24491,0.0
76.92666666666655,251.85333333333338,8.75,4.0,43.94447302149115,59.99999999999999,420.685359617896,-5.1221367411965715e-14,-4.75,0.0001,-0.0381,572.0268,-0.01046,-309.50212,0.0,-5292.74278,0.0
73.47111111111099,255.30888888888896,8.75,4.0,43.72418304274178,59.99999999999999,432.230330990513,-5.1221367411965715e-14,-4.75,0.0001,-0.0382,137.81033,-0.00277,-310.64675,0.0,-4982.09603,0.0
70.01555555555542,258.7644444444445,8.75,4.0,43.50389306399241,59.99999999999999,443.9283433180348,-5.1221367411965715e-14,-4.75,0.0001,-0.0384,252.47534,-0.00554,-311.78678,0.0,-4670.30925,0.0
66.55999999999987,262.2200000000001,8.75,4.0,43.28360308524304,59.99999999999999,455.77922367626877,-5.1221367411965715e-14,-4.75,0.0001,-0.0386,160.54646,-0.00381,-298.45493,0.0,-4371.85433,0.0
63.34199999999987,265.43800000000005,8.75,4.0,43.0784571571228,59.99999999999999,466.9527145038075,-5.1221367411965715e-14,-4.75,0.0001,-0.0387,243.64143,-0.00618,-284.94347,0.0,-4086.91085,0.0
60.123999999999874,268.65600000000006,8.75,4.0,42.87331122900257,59.99999999999999,478.2584825363183,-5.1221367411965715e-14,-4.75,0.0001,-0.0388,29.22858,-0.00079,-285.89564,0.0,-3801.01521,0.0
56.90599999999987,271.8740000000001,8.75,4.0,42.668165300882336,59.99999999999999,489.69638283650863,-5.1221367411965715e-14,-4.75,0.0001,-0.0389,1046.41376,-0.02964,-286.84415,0.0,-3514.17107,0.0
53.687999999999874,275.09200000000004,8.75,4.0,42.463019372762105,59.99999999999999,501.26626877318137,-5.1221367411965715e-14,-4.7496,0.0001,-0.039,-0.0,-0.0,-287.78897,0.0,-3226.38209,0.0
50.46999999999988,278.31000000000006,8.75,4.0,42.257873444641874,59.99999999999999,512.9679920231146,-5.1221367411965715e-14,-4.7432,0.0001,-0.0391,-0.0,-0.0,-288.73011,0.0,-2937.65199,0.0
47.251999999999875,281.5280000000001,8.75,4.0,42.05272751652164,59.99999999999999,524.8014025729627,-5.1221367411965715e-14,-4.7255,0.0001,-0.0392,-0.0,-0.0,-289.66754,0.0,-2647.98444,0.0
44.03399999999988,284.74600000000004,8.75,4.0,41.84758158840141,59.99999999999999,536.7663487211802,-5.1221367411965715e-14,-4.6929,0.0002,-0.0393,-0.0,-0.0,-290.60127,0.0,-2357.38318,0.0
40.81599999999988,287.96400000000006,8.75,4.0,41.64243566028117,59.99999999999999,548.8626770799657,-5.1221367411965715e-14,-4.6437,0.0002,-0.0394,-0.0,-0.0,-291.53126,0.0,-2065.85191,0.0
37.59799999999988,291.1820000000001,8.75,4.0,41.43728973216094,59.99999999999999,561.090232577229,-5.1221367411965715e-14,-4.578,0.0001,-0.0395,-0.0,-0.0,-292.45752,0.0,-1773.39439,0.0
34.37999999999988,294.40000000000003,8.75,4.0,41.23214380404071,59.99999999999999,573.4488584585787,-5.1221367411965715e-14,-4.4976,0.0001,-0.0395,-0.0,-0.0,-304.37234,0.0,-1469.02205,0.0
30.948888888888785,297.83111111111117,8.75,3.969,41.01341214668442,59.99999999999999,586.7701312519437,-5.1221367411965715e-14,-4.3999,0.0001,-0.0396,-0.0,-0.0,-316.41751,0.0,-1152.60454,0.0
27.517777777777685,301.26222222222225,8.75,3.969,40.794680489328144,59.99999999999999,600.2400351935856,-5.1221367411965715e-14,-4.2962,0.0001,-0.0396,-0.0,-0.0,-317.46575,0.0,-835.13879,0.0
24.086666666666588,304.6933333333333,8.75,3.969,40.57594883197186,59.99999999999999,613.8583739736986,-5.1221367411965715e-14,-4.1953,0.0001,-0.0396,-0.0,-0.0,-318.50937,0.0,-516.62941,0.0
20.65555555555549,308.12444444444446,8.75,3.969,40.35721717461557,59.99999999999999,627.6249491191936,-5.1221367411965715e-14,-4.108,0.0001,-0.0396,-0.0,-0.0,-319.54835,0.0,-197.08107,0.0
17.22444444444439,311.55555555555554,8.75,3.969,40.138485517259284,59.99999999999999,641.5395599965913,-5.1221367411965715e-14,-4.0475,0.0001,-0.0397,-0.0,-0.0,-320.58267,0.0,123.5016,0.0
13.793333333333294,314.9866666666666,8.75,3.969,39.919753859903004,59.99999999999999,655.6020038149456,-5.1221367411965715e-14,-4.0286,0.0001,-0.0396,-0.0,-0.0,-321.61231,0.0,445.11391,0.0
10.362222222222195,318.41777777777776,8.75,3.969,39.70102220254672,59.99999999999999,669.8120756288,-5.1221367411965715e-14,-4.0686,0.0001,-0.0396,-0.0,-0.0,-322.63727,0.0,767.75119,0.0
6.931111111111098,321.84888888888884,8.75,3.969,39.48229054519043,59.99999999999999,684.1695683411734,-5.1221367411965715e-14,-4.1865,0.0,-0.0396,-0.0,-0.0,-323.65753,0.0,1091.40872,0.0
3.5,325.2799999999999,8.75,4.0,39.263558887834144,59.99999999999999,698.674272706579,-5.1221367411965715e-14,-4.4032,0.0,-0.0396,-0.0,-0.0,-246.61001,0.0,1338.01873,0.0
1.75,327.0299999999999,8.75,4.0,39.15199724264757,59.99999999999999,706.128853838239,-5.1221367411965715e-14,-4.5592,0.0,-0.0396,-0.0,-0.0,-168.81489,0.0,1506.83362,0.0
0.0,328.7799999999999,8.75,4.0,39.040435597460984,59.99999999999999,713.6216473198549,-5.1221367411965715e-14,-4.75,0.0,-0.0395,2120.85938,-0.03311,1506.83362,0.0,1591.37472,0.0
